# [Setup]
# logfile: auto
# gpib_num: 18
# [Experiment]
# start_freq: 10
# stop_freq: 100000
# points: 400
# linear_type: false
##########
# Comment: Optimised PID settings for "almost" locking
##########
# Frequency (Hz), LogMagnitude (dB), Phase (deg)
1.0000e+01,-2.5891e+01,-8.9667e+01
1.0234e+01,-2.6113e+01,-8.8601e+01
1.0472e+01,-2.6308e+01,-8.8334e+01
1.0717e+01,-2.6478e+01,-8.8153e+01
1.0967e+01,-2.6664e+01,-8.8069e+01
1.1223e+01,-2.6877e+01,-8.8055e+01
1.1486e+01,-2.7061e+01,-8.8021e+01
1.1754e+01,-2.7266e+01,-8.7974e+01
1.2028e+01,-2.7459e+01,-8.7966e+01
1.2309e+01,-2.7658e+01,-8.7940e+01
1.2597e+01,-2.7857e+01,-8.7880e+01
1.2891e+01,-2.8056e+01,-8.7822e+01
1.3192e+01,-2.8245e+01,-8.7775e+01
1.3500e+01,-2.8457e+01,-8.7741e+01
1.3815e+01,-2.8658e+01,-8.7709e+01
1.4138e+01,-2.8865e+01,-8.7631e+01
1.4468e+01,-2.9058e+01,-8.7625e+01
1.4806e+01,-2.9259e+01,-8.7572e+01
1.5151e+01,-2.9455e+01,-8.7624e+01
1.5505e+01,-2.9657e+01,-8.7561e+01
1.5867e+01,-2.9867e+01,-8.7483e+01
1.6238e+01,-3.0047e+01,-8.7370e+01
1.6617e+01,-3.0251e+01,-8.7329e+01
1.7005e+01,-3.0456e+01,-8.7295e+01
1.7402e+01,-3.0653e+01,-8.7274e+01
1.7808e+01,-3.0859e+01,-8.7209e+01
1.8224e+01,-3.1057e+01,-8.7108e+01
1.8650e+01,-3.1260e+01,-8.7093e+01
1.9085e+01,-3.1499e+01,-8.7125e+01
1.9531e+01,-3.1673e+01,-8.6885e+01
1.9987e+01,-3.1861e+01,-8.6886e+01
2.0454e+01,-3.2060e+01,-8.6854e+01
2.0932e+01,-3.2271e+01,-8.6833e+01
2.1420e+01,-3.2457e+01,-8.6685e+01
2.1921e+01,-3.2659e+01,-8.6637e+01
2.2432e+01,-3.2861e+01,-8.6539e+01
2.2956e+01,-3.3058e+01,-8.6466e+01
2.3492e+01,-3.3260e+01,-8.6378e+01
2.4041e+01,-3.3464e+01,-8.6391e+01
2.4602e+01,-3.3669e+01,-8.6239e+01
2.5177e+01,-3.3865e+01,-8.6115e+01
2.5765e+01,-3.4055e+01,-8.6146e+01
2.6367e+01,-3.4255e+01,-8.6092e+01
2.6982e+01,-3.4466e+01,-8.5990e+01
2.7612e+01,-3.4682e+01,-8.5883e+01
2.8257e+01,-3.4866e+01,-8.5735e+01
2.8917e+01,-3.5068e+01,-8.5670e+01
2.9592e+01,-3.5262e+01,-8.5660e+01
3.0283e+01,-3.5461e+01,-8.5550e+01
3.0990e+01,-3.5666e+01,-8.5395e+01
3.1714e+01,-3.5858e+01,-8.5277e+01
3.2455e+01,-3.6138e+01,-8.5308e+01
3.3213e+01,-3.6333e+01,-8.5055e+01
3.3988e+01,-3.6477e+01,-8.4762e+01
3.4782e+01,-3.6649e+01,-8.4770e+01
3.5594e+01,-3.6837e+01,-8.4785e+01
3.6425e+01,-3.7049e+01,-8.4758e+01
3.7276e+01,-3.7259e+01,-8.4543e+01
3.8146e+01,-3.7476e+01,-8.4426e+01
3.9037e+01,-3.7687e+01,-8.4235e+01
3.9949e+01,-3.7868e+01,-8.4180e+01
4.0882e+01,-3.8076e+01,-8.4002e+01
4.1836e+01,-3.8273e+01,-8.3842e+01
4.2813e+01,-3.8463e+01,-8.3730e+01
4.3813e+01,-3.8691e+01,-8.3697e+01
4.4836e+01,-3.8897e+01,-8.3463e+01
4.5883e+01,-3.9070e+01,-8.3290e+01
4.6955e+01,-3.9268e+01,-8.3218e+01
4.8051e+01,-3.9483e+01,-8.2974e+01
4.9173e+01,-3.9691e+01,-8.2824e+01
5.0322e+01,-3.9880e+01,-8.2712e+01
5.1497e+01,-4.0086e+01,-8.2524e+01
5.2699e+01,-4.0259e+01,-8.2401e+01
5.3930e+01,-4.0487e+01,-8.2151e+01
5.5189e+01,-4.0692e+01,-8.2118e+01
5.6478e+01,-4.0891e+01,-8.1902e+01
5.7797e+01,-4.1044e+01,-8.1433e+01
5.9147e+01,-4.1372e+01,-8.1385e+01
6.0528e+01,-4.1556e+01,-8.1211e+01
6.1941e+01,-4.1690e+01,-8.0882e+01
6.3388e+01,-4.1887e+01,-8.1009e+01
6.4868e+01,-4.2086e+01,-8.0488e+01
6.6383e+01,-4.2280e+01,-8.0247e+01
6.7933e+01,-4.2484e+01,-8.0272e+01
6.9519e+01,-4.2681e+01,-8.0189e+01
7.1143e+01,-4.2919e+01,-7.9783e+01
7.2804e+01,-4.3124e+01,-7.9516e+01
7.4504e+01,-4.3299e+01,-7.9372e+01
7.6244e+01,-4.3513e+01,-7.9105e+01
7.8024e+01,-4.3719e+01,-7.8756e+01
7.9846e+01,-4.3924e+01,-7.8377e+01
8.1711e+01,-4.4136e+01,-7.8213e+01
8.3619e+01,-4.4322e+01,-7.7912e+01
8.5572e+01,-4.4548e+01,-7.7667e+01
8.7570e+01,-4.4749e+01,-7.7366e+01
8.9615e+01,-4.4936e+01,-7.7134e+01
9.1708e+01,-4.5149e+01,-7.6908e+01
9.3849e+01,-4.5346e+01,-7.6607e+01
9.6041e+01,-4.5552e+01,-7.6292e+01
9.8284e+01,-4.5755e+01,-7.5777e+01
1.0058e+02,-4.5947e+01,-7.5391e+01
1.0293e+02,-4.6167e+01,-7.5098e+01
1.0533e+02,-4.6367e+01,-7.4771e+01
1.0779e+02,-4.6576e+01,-7.4430e+01
1.1031e+02,-4.6793e+01,-7.3926e+01
1.1288e+02,-4.6977e+01,-7.3662e+01
1.1552e+02,-4.7224e+01,-7.3136e+01
1.1822e+02,-4.7430e+01,-7.2895e+01
1.2098e+02,-4.7571e+01,-7.2469e+01
1.2380e+02,-4.7788e+01,-7.1932e+01
1.2669e+02,-4.8043e+01,-7.1499e+01
1.2965e+02,-4.8244e+01,-7.0966e+01
1.3268e+02,-4.8434e+01,-7.0697e+01
1.3578e+02,-4.8631e+01,-7.0181e+01
1.3895e+02,-4.8864e+01,-6.9528e+01
1.4219e+02,-4.9060e+01,-6.9206e+01
1.4551e+02,-4.9246e+01,-6.8993e+01
1.4891e+02,-4.9467e+01,-6.8158e+01
1.5239e+02,-4.9711e+01,-6.7397e+01
1.5595e+02,-4.9903e+01,-6.6840e+01
1.5959e+02,-5.0145e+01,-6.6216e+01
1.6332e+02,-5.0286e+01,-6.5670e+01
1.6713e+02,-5.0522e+01,-6.5138e+01
1.7103e+02,-5.0759e+01,-6.4360e+01
1.7503e+02,-5.0927e+01,-6.3108e+01
1.7912e+02,-5.1196e+01,-6.2773e+01
1.8330e+02,-5.1343e+01,-6.1501e+01
1.8758e+02,-5.1553e+01,-6.1528e+01
1.9196e+02,-5.1839e+01,-6.0554e+01
1.9644e+02,-5.1973e+01,-5.9766e+01
2.0103e+02,-5.2199e+01,-5.9105e+01
2.0572e+02,-5.2383e+01,-5.8158e+01
2.1053e+02,-5.2628e+01,-5.6735e+01
2.1544e+02,-5.2839e+01,-5.6322e+01
2.2047e+02,-5.3072e+01,-5.5229e+01
2.2562e+02,-5.3252e+01,-5.4268e+01
2.3089e+02,-5.3438e+01,-5.3365e+01
2.3628e+02,-5.3646e+01,-5.2071e+01
2.4180e+02,-5.3859e+01,-5.1204e+01
2.4745e+02,-5.4027e+01,-5.0183e+01
2.5323e+02,-5.4260e+01,-4.8678e+01
2.5914e+02,-5.4445e+01,-4.7481e+01
2.6519e+02,-5.4624e+01,-4.6318e+01
2.7138e+02,-5.4822e+01,-4.5116e+01
2.7772e+02,-5.5065e+01,-4.3445e+01
2.8421e+02,-5.5241e+01,-4.2429e+01
2.9084e+02,-5.5378e+01,-4.0945e+01
2.9764e+02,-5.5558e+01,-3.9075e+01
3.0459e+02,-5.5763e+01,-3.7642e+01
3.1170e+02,-5.5908e+01,-3.6137e+01
3.1898e+02,-5.6065e+01,-3.4423e+01
3.2643e+02,-5.6293e+01,-3.3267e+01
3.3405e+02,-5.6396e+01,-3.1090e+01
3.4185e+02,-5.6505e+01,-2.9804e+01
3.4983e+02,-5.6603e+01,-2.7774e+01
3.5800e+02,-5.6732e+01,-2.5600e+01
3.6636e+02,-5.6884e+01,-2.4007e+01
3.7492e+02,-5.7019e+01,-2.2038e+01
3.8367e+02,-5.7080e+01,-2.0073e+01
3.9263e+02,-5.7165e+01,-1.7825e+01
4.0180e+02,-5.7167e+01,-1.5701e+01
4.1118e+02,-5.7352e+01,-1.3408e+01
4.2078e+02,-5.7343e+01,-1.1650e+01
4.3061e+02,-5.7307e+01,-9.2698e+00
4.4067e+02,-5.7468e+01,-7.9630e+00
4.5096e+02,-5.7385e+01,-5.5311e+00
4.6149e+02,-5.7317e+01,-4.2218e+00
4.7226e+02,-5.7344e+01,-1.4685e+00
4.8329e+02,-5.7329e+01,6.4567e-01
4.9458e+02,-5.7229e+01,2.6890e+00
5.0613e+02,-5.7242e+01,5.0942e+00
5.1795e+02,-5.7147e+01,7.0472e+00
5.3004e+02,-5.7078e+01,8.9396e+00
5.4242e+02,-5.6955e+01,1.0885e+01
5.5509e+02,-5.6840e+01,1.2575e+01
5.6805e+02,-5.6836e+01,1.4832e+01
5.8131e+02,-5.6621e+01,1.6662e+01
5.9489e+02,-5.6529e+01,1.8345e+01
6.0878e+02,-5.6347e+01,1.9378e+01
6.2300e+02,-5.6207e+01,2.1404e+01
6.3755e+02,-5.6016e+01,2.3187e+01
6.5243e+02,-5.5899e+01,2.4379e+01
6.6767e+02,-5.5718e+01,2.6061e+01
6.8326e+02,-5.5497e+01,2.7446e+01
6.9922e+02,-5.5336e+01,2.8733e+01
7.1554e+02,-5.5192e+01,3.0073e+01
7.3225e+02,-5.4995e+01,3.1300e+01
7.4935e+02,-5.4819e+01,3.2694e+01
7.6685e+02,-5.4599e+01,3.3387e+01
7.8476e+02,-5.4396e+01,3.4589e+01
8.0309e+02,-5.4209e+01,3.5322e+01
8.2184e+02,-5.3978e+01,3.6625e+01
8.4103e+02,-5.3832e+01,3.7925e+01
8.6067e+02,-5.3611e+01,3.8718e+01
8.8077e+02,-5.3414e+01,3.9346e+01
9.0134e+02,-5.3176e+01,4.0340e+01
9.2239e+02,-5.2982e+01,4.1063e+01
9.4392e+02,-5.2748e+01,4.1624e+01
9.6597e+02,-5.2579e+01,4.2492e+01
9.8852e+02,-5.2369e+01,4.3234e+01
1.0116e+03,-5.2165e+01,4.3945e+01
1.0352e+03,-5.1947e+01,4.4237e+01
1.0594e+03,-5.1777e+01,4.5110e+01
1.0841e+03,-5.1535e+01,4.5500e+01
1.1095e+03,-5.1315e+01,4.5921e+01
1.1354e+03,-5.1142e+01,4.6403e+01
1.1619e+03,-5.0923e+01,4.6800e+01
1.1890e+03,-5.0732e+01,4.7198e+01
1.2168e+03,-5.0525e+01,4.7414e+01
1.2452e+03,-5.0279e+01,4.7649e+01
1.2743e+03,-5.0105e+01,4.7880e+01
1.3040e+03,-4.9870e+01,4.8327e+01
1.3345e+03,-4.9685e+01,4.8474e+01
1.3656e+03,-4.9473e+01,4.8771e+01
1.3975e+03,-4.9291e+01,4.9033e+01
1.4302e+03,-4.9082e+01,4.9131e+01
1.4636e+03,-4.8885e+01,4.9142e+01
1.4977e+03,-4.8680e+01,4.9323e+01
1.5327e+03,-4.8466e+01,4.9287e+01
1.5685e+03,-4.8255e+01,4.9419e+01
1.6051e+03,-4.8072e+01,4.9407e+01
1.6426e+03,-4.7862e+01,4.9425e+01
1.6810e+03,-4.7643e+01,4.9348e+01
1.7202e+03,-4.7484e+01,4.9147e+01
1.7604e+03,-4.7250e+01,4.9344e+01
1.8015e+03,-4.7062e+01,4.9178e+01
1.8436e+03,-4.6866e+01,4.9197e+01
1.8866e+03,-4.6660e+01,4.8717e+01
1.9307e+03,-4.6475e+01,4.8678e+01
1.9758e+03,-4.6270e+01,4.8456e+01
2.0219e+03,-4.6087e+01,4.8146e+01
2.0691e+03,-4.5882e+01,4.7986e+01
2.1175e+03,-4.5712e+01,4.7738e+01
2.1669e+03,-4.5511e+01,4.7379e+01
2.2175e+03,-4.5328e+01,4.6986e+01
2.2693e+03,-4.5113e+01,4.6597e+01
2.3223e+03,-4.4944e+01,4.6289e+01
2.3765e+03,-4.4761e+01,4.5877e+01
2.4320e+03,-4.4568e+01,4.5483e+01
2.4888e+03,-4.4377e+01,4.5004e+01
2.5469e+03,-4.4188e+01,4.4587e+01
2.6064e+03,-4.3995e+01,4.4181e+01
2.6673e+03,-4.3823e+01,4.3475e+01
2.7295e+03,-4.3651e+01,4.2955e+01
2.7933e+03,-4.3464e+01,4.2429e+01
2.8585e+03,-4.3284e+01,4.1890e+01
2.9253e+03,-4.3101e+01,4.1165e+01
2.9936e+03,-4.2938e+01,4.0547e+01
3.0635e+03,-4.2757e+01,3.9833e+01
3.1350e+03,-4.2588e+01,3.9141e+01
3.2082e+03,-4.2418e+01,3.8406e+01
3.2832e+03,-4.2249e+01,3.7626e+01
3.3598e+03,-4.2080e+01,3.6890e+01
3.4383e+03,-4.1922e+01,3.6010e+01
3.5186e+03,-4.1753e+01,3.5227e+01
3.6007e+03,-4.1602e+01,3.4311e+01
3.6848e+03,-4.1441e+01,3.3401e+01
3.7709e+03,-4.1279e+01,3.2421e+01
3.8589e+03,-4.1133e+01,3.1505e+01
3.9490e+03,-4.0975e+01,3.0533e+01
4.0413e+03,-4.0833e+01,2.9573e+01
4.1356e+03,-4.0685e+01,2.8452e+01
4.2322e+03,-4.0546e+01,2.7397e+01
4.3310e+03,-4.0409e+01,2.6322e+01
4.4322e+03,-4.0273e+01,2.5171e+01
4.5357e+03,-4.0148e+01,2.4032e+01
4.6416e+03,-4.0021e+01,2.2812e+01
4.7500e+03,-3.9900e+01,2.1604e+01
4.8609e+03,-3.9774e+01,2.0337e+01
4.9744e+03,-3.9662e+01,1.9122e+01
5.0906e+03,-3.9553e+01,1.7772e+01
5.2095e+03,-3.9453e+01,1.6484e+01
5.3311e+03,-3.9346e+01,1.5148e+01
5.4556e+03,-3.9249e+01,1.3751e+01
5.5830e+03,-3.9161e+01,1.2315e+01
5.7134e+03,-3.9079e+01,1.0898e+01
5.8468e+03,-3.9001e+01,9.4580e+00
5.9833e+03,-3.8930e+01,8.0332e+00
6.1230e+03,-3.8860e+01,6.5101e+00
6.2660e+03,-3.8799e+01,5.0071e+00
6.4124e+03,-3.8743e+01,3.4578e+00
6.5621e+03,-3.8701e+01,1.8973e+00
6.7153e+03,-3.8656e+01,3.6226e-01
6.8722e+03,-3.8620e+01,-1.2105e+00
7.0326e+03,-3.8583e+01,-2.7998e+00
7.1969e+03,-3.8563e+01,-4.4000e+00
7.3649e+03,-3.8544e+01,-6.0154e+00
7.5369e+03,-3.8534e+01,-7.6385e+00
7.7129e+03,-3.8533e+01,-9.3155e+00
7.8930e+03,-3.8533e+01,-1.0912e+01
8.0773e+03,-3.8546e+01,-1.2519e+01
8.2660e+03,-3.8563e+01,-1.4183e+01
8.4590e+03,-3.8593e+01,-1.5825e+01
8.6565e+03,-3.8612e+01,-1.7475e+01
8.8587e+03,-3.8653e+01,-1.9115e+01
9.0655e+03,-3.8698e+01,-2.0744e+01
9.2772e+03,-3.8749e+01,-2.2381e+01
9.4939e+03,-3.8800e+01,-2.4013e+01
9.7156e+03,-3.8867e+01,-2.5615e+01
9.9425e+03,-3.8930e+01,-2.7213e+01
1.0175e+04,-3.9002e+01,-2.8819e+01
1.0412e+04,-3.9083e+01,-3.0444e+01
1.0655e+04,-3.9163e+01,-3.1998e+01
1.0904e+04,-3.9258e+01,-3.3599e+01
1.1159e+04,-3.9352e+01,-3.5174e+01
1.1419e+04,-3.9455e+01,-3.6701e+01
1.1686e+04,-3.9561e+01,-3.8251e+01
1.1959e+04,-3.9670e+01,-3.9788e+01
1.2238e+04,-3.9787e+01,-4.1317e+01
1.2524e+04,-3.9894e+01,-4.2808e+01
1.2816e+04,-4.0022e+01,-4.4289e+01
1.3116e+04,-4.0144e+01,-4.5768e+01
1.3422e+04,-4.0277e+01,-4.7281e+01
1.3736e+04,-4.0410e+01,-4.8711e+01
1.4056e+04,-4.0550e+01,-5.0145e+01
1.4384e+04,-4.0692e+01,-5.1602e+01
1.4720e+04,-4.0831e+01,-5.2975e+01
1.5064e+04,-4.0985e+01,-5.4376e+01
1.5416e+04,-4.1136e+01,-5.5764e+01
1.5776e+04,-4.1284e+01,-5.7206e+01
1.6144e+04,-4.1441e+01,-5.8569e+01
1.6521e+04,-4.1592e+01,-5.9932e+01
1.6907e+04,-4.1761e+01,-6.1341e+01
1.7302e+04,-4.1920e+01,-6.2686e+01
1.7706e+04,-4.2081e+01,-6.4042e+01
1.8119e+04,-4.2247e+01,-6.5421e+01
1.8543e+04,-4.2420e+01,-6.6763e+01
1.8976e+04,-4.2589e+01,-6.8133e+01
1.9419e+04,-4.2759e+01,-6.9482e+01
1.9872e+04,-4.2927e+01,-7.0911e+01
2.0336e+04,-4.3104e+01,-7.2252e+01
2.0811e+04,-4.3289e+01,-7.3649e+01
2.1297e+04,-4.3455e+01,-7.5006e+01
2.1794e+04,-4.3642e+01,-7.6382e+01
2.2303e+04,-4.3814e+01,-7.7804e+01
2.2824e+04,-4.3991e+01,-7.9235e+01
2.3357e+04,-4.4172e+01,-8.0588e+01
2.3903e+04,-4.4355e+01,-8.2099e+01
2.4461e+04,-4.4540e+01,-8.3662e+01
2.5032e+04,-4.4733e+01,-8.5118e+01
2.5617e+04,-4.4908e+01,-8.6576e+01
2.6215e+04,-4.5088e+01,-8.8199e+01
2.6827e+04,-4.5274e+01,-8.9801e+01
2.7453e+04,-4.5469e+01,-9.1366e+01
2.8095e+04,-4.5646e+01,-9.3089e+01
2.8751e+04,-4.5820e+01,-9.4785e+01
2.9422e+04,-4.6000e+01,-9.6482e+01
3.0109e+04,-4.6177e+01,-9.8351e+01
3.0812e+04,-4.6345e+01,-1.0017e+02
3.1532e+04,-4.6529e+01,-1.0214e+02
3.2268e+04,-4.6701e+01,-1.0406e+02
3.3022e+04,-4.6860e+01,-1.0624e+02
3.3793e+04,-4.7024e+01,-1.0822e+02
3.4582e+04,-4.7182e+01,-1.1048e+02
3.5389e+04,-4.7336e+01,-1.1283e+02
3.6216e+04,-4.7479e+01,-1.1511e+02
3.7061e+04,-4.7630e+01,-1.1754e+02
3.7927e+04,-4.7749e+01,-1.2009e+02
3.8813e+04,-4.7872e+01,-1.2269e+02
3.9719e+04,-4.7979e+01,-1.2541e+02
4.0646e+04,-4.8062e+01,-1.2812e+02
4.1596e+04,-4.8137e+01,-1.3097e+02
4.2567e+04,-4.8206e+01,-1.3392e+02
4.3561e+04,-4.8254e+01,-1.3715e+02
4.4578e+04,-4.8279e+01,-1.4023e+02
4.5619e+04,-4.8303e+01,-1.4352e+02
4.6685e+04,-4.8281e+01,-1.4688e+02
4.7775e+04,-4.8245e+01,-1.5022e+02
4.8890e+04,-4.8193e+01,-1.5352e+02
5.0032e+04,-4.8102e+01,-1.5703e+02
5.1200e+04,-4.8005e+01,-1.6066e+02
5.2396e+04,-4.7867e+01,-1.6427e+02
5.3620e+04,-4.7715e+01,-1.6774e+02
5.4872e+04,-4.7531e+01,-1.7130e+02
5.6153e+04,-4.7320e+01,-1.7487e+02
5.7464e+04,-4.7080e+01,-1.7842e+02
5.8806e+04,-4.6831e+01,-1.8194e+02
6.0180e+04,-4.6561e+01,-1.8542e+02
6.1585e+04,-4.6271e+01,-1.8881e+02
6.3023e+04,-4.5970e+01,-1.9216e+02
6.4495e+04,-4.5645e+01,-1.9552e+02
6.6001e+04,-4.5303e+01,-1.9884e+02
6.7542e+04,-4.4941e+01,-2.0198e+02
6.9119e+04,-4.4583e+01,-2.0535e+02
7.0733e+04,-4.4216e+01,-2.0853e+02
7.2385e+04,-4.3844e+01,-2.1169e+02
7.4075e+04,-4.3443e+01,-2.1481e+02
7.5805e+04,-4.3049e+01,-2.1789e+02
7.7575e+04,-4.2653e+01,-2.2098e+02
7.9387e+04,-4.2250e+01,-2.2405e+02
8.1241e+04,-4.1844e+01,-2.2712e+02
8.3138e+04,-4.1435e+01,-2.3016e+02
8.5079e+04,-4.1028e+01,-2.3324e+02
8.7066e+04,-4.0617e+01,-2.3633e+02
8.9099e+04,-4.0215e+01,-2.3944e+02
9.1180e+04,-3.9803e+01,-2.4257e+02
9.3309e+04,-3.9405e+01,-2.4573e+02
9.5488e+04,-3.8996e+01,-2.4888e+02
9.7718e+04,-3.8598e+01,-2.5215e+02
1.0000e+05,-3.8208e+01,-2.5549e+02
